time (s)	magX	magY	magZ
7851.027024	237.660431	217.108124	170.152542
7851.030362	241.459396	221.082413	176.289307
7851.033719	243.504974	224.589127	183.770309
7851.037066	246.661011	228.329620	191.426651
7851.040420	249.758621	232.479248	198.556992
7851.043728	252.505569	235.927521	205.979538
7851.047078	255.194046	239.551132	214.161896
7851.050405	258.291656	243.116302	221.584457
7851.053706	260.746368	247.967285	230.234360
7851.057073	263.434845	251.941559	238.533615
7851.060393	266.532440	255.974274	247.475723
7851.064201	269.220917	260.182343	257.820587
7851.067520	271.383392	264.156647	266.996521
7851.070823	273.896545	268.189362	277.516663
7851.074154	276.175934	271.579193	288.562836
7851.077440	278.163086	276.079468	299.024567
7851.080724	280.208649	280.170685	310.070740
7851.084096	281.962006	284.086517	321.818237
7851.087467	284.299835	287.768585	333.974884
7851.091215	286.111633	291.450623	345.897736
7851.094544	287.455872	295.074219	358.814148
7851.097872	288.332550	299.223846	372.081238
7851.101182	289.618347	302.438354	386.517242
7851.104587	289.910583	306.354187	399.609009
7851.107891	290.962585	309.217987	413.986542
7851.111219	290.845703	312.666290	428.247223
7851.114520	290.845703	316.289886	442.215698
7851.117868	289.559906	318.569275	458.697266
7851.121226	288.566315	321.374634	474.009949
7851.124962	287.338989	323.770905	489.439514
7851.128292	285.644073	326.167145	505.804199
7851.131584	283.656921	328.037384	521.993591
7851.134913	281.026886	330.024536	538.299866
7851.138186	278.338409	331.602570	554.781433
7851.141521	274.831665	332.654602	572.315063
7851.144916	271.383392	333.472809	589.556396
7851.148737	266.707764	334.524841	606.739319
7851.152338	261.739929	334.174164	624.448303
7851.155664	255.953842	333.940369	641.689697
7851.159000	249.817062	333.063721	659.573975
7851.162334	243.388077	332.829926	677.049133
7851.165660	236.666870	330.550568	694.407349
7851.168999	229.010513	328.797180	711.882568
7851.172328	220.185272	326.810059	730.000610
7851.175662	211.769150	324.063141	748.410889
7851.179005	201.774994	320.439514	765.535339
7851.182325	191.079483	316.348328	782.133850
7851.185658	179.857986	311.964935	798.440125
7851.189024	168.519577	306.763306	815.564575
7851.192326	156.655167	301.210999	831.812439
7851.195659	144.440094	295.366455	847.534241
7851.198994	131.114548	288.995911	863.372864
7851.202771	116.503212	281.690247	877.808899
7851.206074	102.593216	273.858551	891.718933
7851.209424	86.988312	265.617767	904.167725
7851.212752	72.084747	256.909424	916.675049
7851.216101	55.486267	247.850388	929.240784
7851.219462	40.115139	237.797775	940.520752
7851.222782	23.516657	227.862061	951.859131
7851.226100	6.742841	217.751022	960.509094
7851.229415	-11.375219	206.704849	969.158997
7851.232782	-28.908825	195.132675	976.873718
7851.236508	-46.734657	183.735825	983.127441
7851.239889	-64.268265	171.170090	987.744568
7851.243202	-81.743423	158.604324	992.537048
7851.246646	-99.919930	145.278793	994.699646
7851.249934	-118.037987	133.122147	996.862061
7851.253249	-135.162476	120.030396	997.095825
7851.256513	-152.520752	106.061951	996.394470
7851.259838	-169.119232	93.028641	994.348938
7851.263206	-186.302155	79.235535	990.900696
7851.267001	-203.309753	66.085327	987.335449
7851.270422	-219.382233	53.110462	982.309204
7851.273340	-235.045578	39.901814	975.003479
7851.277044	-250.007599	26.926943	967.639404
7851.280405	-264.618958	14.302748	960.041504
7851.283701	-279.464050	1.152543	950.281128
7851.287055	-293.140259	-12.172998	939.527161
7851.290387	-305.881348	-23.862068	927.078308
7851.293695	-318.505554	-35.258911	915.038574
7851.297044	-330.253082	-46.947983	902.297485
7851.300846	-341.649902	-58.111046	888.504395
7851.304178	-352.754517	-68.806549	873.717773
7851.307493	-362.047333	-79.034485	859.281677
7851.310805	-370.405029	-88.970200	842.975464
7851.314146	-379.288727	-98.964355	827.253662
7851.317486	-386.302155	-107.322037	810.479919
7851.320764	-393.315613	-115.796616	793.413818
7851.324114	-400.212158	-124.972534	775.938660
7851.327833	-405.705994	-132.278198	757.469910
7851.331166	-410.323212	-139.525421	739.994751
7851.334486	-414.589722	-146.305084	721.993591
7851.337840	-418.038025	-152.266510	704.050842
7851.341200	-420.375793	-157.818817	686.458801
7851.344493	-422.129181	-162.903564	668.749878
7851.347803	-423.999420	-168.046753	649.638245
7851.351123	-425.109894	-172.663940	631.987732
7851.354525	-425.752747	-176.638214	613.752808
7851.358290	-425.752747	-179.911148	595.634705
7851.361593	-424.876099	-183.300995	578.159607
7851.364899	-424.466980	-186.164810	560.625916
7851.368213	-422.713623	-188.268845	542.917053
7851.371585	-421.895386	-190.548218	526.610779
7851.374886	-419.265350	-192.476913	510.012329
7851.378290	-417.395081	-193.938049	494.173584
7851.381631	-413.596130	-195.165405	477.750458
7851.384977	-410.907684	-196.509644	461.970184
7851.388732	-407.751587	-197.561646	445.021057
7851.392309	-403.368225	-197.970779	429.942139
7851.395638	-400.036835	-198.379898	415.155457
7851.398979	-395.594971	-197.853882	401.187042
7851.402304	-392.088257	-197.269440	386.926361
7851.405644	-387.471069	-196.275864	373.367065
7851.408973	-383.146118	-196.042084	360.333740
7851.412302	-378.353607	-195.106949	348.293976
7851.415642	-374.087067	-194.230270	335.319122
7851.418986	-369.411438	-193.821152	322.987152
7851.422303	-364.385162	-192.126236	311.765656
7851.425635	-359.183533	-191.074219	299.959686
7851.428966	-353.572784	-189.963760	289.848633
7851.432337	-348.429565	-188.677963	279.153137
7851.435636	-343.695496	-186.807709	268.574524
7851.439397	-339.136780	-184.937454	258.463501
7851.442752	-334.110443	-182.891876	249.287552
7851.446054	-328.616608	-181.313843	240.812973
7851.449401	-323.824066	-179.618942	231.929276
7851.452725	-318.856201	-177.573349	222.987152
7851.456058	-313.946808	-175.995316	215.506149
7851.459418	-309.329620	-173.832840	207.616013
7851.462775	-304.303345	-172.371704	200.368774
7851.466085	-299.861481	-170.209229	192.420212
7851.469459	-294.133820	-168.163635	185.932770
7851.473173	-289.808899	-166.234940	179.620682
7851.476480	-284.665680	-163.897125	172.490356
7851.479817	-280.165405	-162.669785	165.944473
7851.483180	-275.431335	-160.390411	160.216827
7851.486516	-271.457062	-158.578598	153.554062
7851.489880	-266.547638	-156.123901	147.709518
7851.493267	-262.281128	-154.253647	142.683228
7851.496506	-258.073059	-152.558746	138.241379
7851.499822	-254.390991	-150.279358	132.981293
7851.503616	-250.241379	-148.116882	127.954987
7851.507018	-245.916412	-146.772644	122.870255
7851.510335	-242.877274	-144.785507	119.597305
7851.513688	-238.610748	-143.207474	114.980133
7851.516988	-235.279373	-141.454117	110.713623
7851.520321	-231.772644	-139.525421	107.089996
7851.523651	-227.915268	-137.538269	103.583282
7851.526990	-224.408539	-136.018707	99.258324
7851.530350	-221.194031	-133.973114	96.277611
7851.533691	-217.511993	-132.219757	92.537109
7851.537013	-214.648148	-131.226181	89.147278
7851.540369	-211.609009	-129.355927	86.400345
7851.544131	-208.628296	-128.070145	83.945641
7851.547444	-205.413788	-126.082993	80.906479
7851.550734	-202.608414	-124.271194	77.633545
7851.554061	-199.277023	-123.102280	75.471069
7851.557345	-196.763870	-121.232025	72.724136
7851.561137	-193.958496	-120.180008	70.561661
7851.564038	-191.912918	-118.426651	67.171822
7851.567771	-189.633545	-117.608414	65.418465
7851.571171	-186.652832	-115.913498	63.372879
7851.574473	-184.490356	-114.393921	61.327293
7851.577819	-181.568085	-113.400345	60.041496
7851.581101	-178.938049	-112.406784	57.353004
7851.584422	-177.535355	-111.062531	55.307419
7851.587789	-173.970184	-109.952072	54.372292
7851.591114	-171.573944	-108.841614	52.911163
7851.594857	-170.054352	-107.555817	49.988899
7851.598170	-168.008774	-107.088257	49.579773
7851.601467	-165.729385	-106.153122	47.183517
7851.604761	-164.092926	-104.458206	46.540619
7851.608092	-162.222672	-103.698425	45.021042
7851.611476	-160.118637	-102.821747	43.910576
7851.614809	-158.540619	-101.652832	42.566338
7851.618542	-156.728821	-100.834595	40.520744
7851.622289	-155.326126	-99.548798	40.403854
7851.625616	-153.981873	-99.081238	39.527176
7851.628946	-152.111633	-98.379898	37.773811
7851.632285	-150.708939	-97.912338	35.845123
7851.635646	-149.247803	-96.977203	36.195793
7851.638950	-147.962006	-96.509644	34.500877
7851.642291	-146.559326	-95.106949	33.565750
7851.645613	-145.215088	-94.873169	32.864403
7851.648948	-143.520172	-94.405609	31.695498
7851.652279	-142.935699	-93.353592	30.526594
7851.655616	-141.416138	-93.119812	30.468145
7851.658946	-140.656342	-92.476913	30.175920
7851.662278	-139.428986	-91.950897	28.773233
7851.665616	-138.552307	-91.600235	28.013441
7851.668949	-137.500290	-90.723557	26.961424
7851.672276	-137.149628	-90.197540	26.435415
7851.675611	-135.337814	-89.320862	26.902979
7851.678982	-134.753357	-89.262421	25.091173
7851.682707	-134.110458	-88.794861	25.441847
7851.686041	-132.941559	-88.444183	25.208063
7851.689376	-133.175339	-87.625946	24.331385
7851.692699	-131.714203	-87.625946	23.688486
7851.696035	-130.954407	-87.099945	23.337812
7851.699372	-129.843948	-87.625946	23.220922
7851.702720	-129.610168	-86.866165	23.980711
7851.706049	-129.084152	-86.281708	22.694914
7851.709398	-128.032150	-85.989487	22.052015
7851.713235	-127.506134	-85.697250	21.818235
7851.716468	-127.447693	-85.405029	21.993570
7851.719785	-127.155457	-85.405029	20.941553
7851.723152	-127.097031	-85.463470	20.707773
7851.726477	-126.044998	-85.405029	21.350672
7851.729839	-125.869675	-85.171249	20.532438
7851.733200	-125.460556	-85.463470	20.707773
7851.736531	-125.577438	-85.054352	19.831095
7851.739919	-124.700760	-84.937469	20.006430
7851.743544	-125.109879	-84.820572	20.123320
7851.746933	-124.291649	-84.879013	20.123320
7851.750320	-124.350082	-84.820572	20.123320
7851.753634	-124.525421	-84.820572	20.181765
7851.757006	-124.057869	-84.762131	19.947985
7851.760303	-124.116302	-85.054352	20.590883
7851.763631	-124.350082	-84.762131	20.006430
7851.766947	-124.057869	-85.405029	19.597311
7851.770319	-123.824081	-85.112793	19.012857
7851.773640	-124.057869	-85.755692	20.240210
7851.777394	-124.116302	-85.872589	20.064875
7851.780797	-123.999420	-86.106369	20.415548
7851.784156	-123.707191	-86.573929	20.064875
7851.787458	-123.707191	-86.223267	19.772650
7851.790794	-124.233200	-86.866165	20.766218
7851.794103	-124.350082	-87.275284	20.590883
7851.797409	-124.934540	-87.509064	21.467562
7851.800720	-125.109879	-87.918182	21.409117
7851.804477	-125.694336	-88.268845	21.467562
7851.807778	-125.518997	-88.502625	21.409117
7851.811093	-126.629456	-88.677963	21.642900
7851.814395	-126.746338	-89.554642	22.344244
7851.817715	-127.798370	-89.905319	22.402689
7851.821086	-127.447693	-90.431320	22.870249
7851.824423	-128.207489	-91.074234	23.571596
7851.827742	-128.558151	-90.957336	23.863821
7851.831538	-129.785507	-92.243134	24.097601
7851.834839	-130.311508	-92.360031	24.565165
7851.838265	-130.662186	-92.593811	25.792517
7851.841543	-131.714203	-93.470490	25.617182
7851.844880	-131.772644	-94.054932	26.143190
7851.848230	-133.233780	-95.048508	26.669199
7851.851593	-133.526001	-95.691406	26.552305
7851.854891	-134.636475	-96.042084	27.779657
7851.858243	-135.220917	-97.035645	28.890123
7851.861532	-136.156052	-97.970779	29.766802
7851.865320	-136.857391	-99.315018	30.351252
7851.868928	-138.669189	-99.665695	32.338402
7851.872264	-139.253647	-100.074814	32.279953
7851.875591	-140.247223	-101.769730	32.572182
7851.878929	-141.299240	-102.821747	33.974869
7851.882261	-142.351257	-103.815308	34.500877
7851.885597	-143.695496	-104.341324	35.552895
7851.888928	-145.565750	-105.451782	36.078903
7851.892262	-146.091766	-106.679138	37.130920
7851.895587	-147.436005	-107.555817	39.059608
7851.898922	-148.838684	-108.666275	40.228516
7851.902254	-150.241379	-109.718292	41.105202
7851.905592	-151.877838	-110.887207	42.390999
7851.908922	-153.455872	-112.056107	44.436584
7851.912259	-154.858566	-113.692581	45.254822
7851.916057	-156.319687	-115.329056	46.715950
7851.919364	-158.423721	-116.381058	49.053764
7851.922677	-160.060211	-118.075974	50.222679
7851.926013	-162.047333	-118.835770	51.450027
7851.929350	-163.508469	-120.180008	52.794273
7851.932669	-165.612503	-122.050262	54.722961
7851.936012	-167.015198	-123.394516	56.242546
7851.939349	-169.645233	-125.556976	58.755699
7851.942671	-171.573944	-127.310349	60.333725
7851.946053	-173.093506	-129.355927	62.671539
7851.949866	-175.255997	-131.459961	65.360023
7851.953170	-178.002914	-132.921097	67.580948
7851.956438	-180.048508	-135.142029	69.918755
7851.959783	-182.152542	-136.603149	72.256569
7851.963097	-184.373459	-138.882523	74.594383
7851.966445	-187.354187	-141.220337	76.873756
7851.969790	-188.756866	-143.207474	78.860901
7851.973182	-192.380478	-145.019287	82.484512
7851.976512	-194.835190	-147.941544	85.523674
7851.980190	-197.348328	-149.753357	88.504379
7851.983541	-199.919937	-151.974274	91.426651
7851.986950	-202.959091	-154.312088	95.634720
7851.990285	-205.413788	-156.591461	99.433670
7851.993615	-208.862061	-158.812393	103.466385
7851.996937	-211.258316	-162.143768	107.148453
7852.000220	-214.063690	-164.656921	109.895386
7852.003555	-218.154877	-167.228516	114.804794
7852.006971	-220.668030	-169.800110	119.421982
7852.010307	-224.057861	-172.780823	123.688492
7852.014045	-227.097015	-175.235535	128.247223
7852.017356	-230.954407	-178.450027	132.689072
7852.020649	-233.701355	-181.489182	137.598480
7852.024008	-236.798950	-184.528351	142.624771
7852.027292	-240.481003	-188.210403	148.644638
7852.030674	-243.812393	-191.307999	154.489197
7852.033973	-247.728226	-194.464050	159.924606
7852.037785	-251.001175	-197.561646	165.769150
7852.041069	-254.332550	-201.243713	172.607254
7852.044367	-258.306824	-204.341324	179.445358
7852.047697	-262.456451	-208.198715	186.575699
7852.051050	-265.787842	-211.179428	193.296906
7852.054441	-270.521942	-214.919937	201.245468
7852.057728	-273.911743	-218.368210	209.018707
7852.061057	-277.360016	-222.284042	216.149033
7852.064428	-281.568085	-226.024536	224.156036
7852.068157	-285.191711	-229.531265	233.507309
7852.071510	-288.932190	-232.687317	242.566330
7852.074860	-293.140259	-236.603149	252.268265
7852.078133	-297.406769	-239.876083	261.327301
7852.081442	-300.679718	-243.616592	271.321472
7852.084737	-305.238464	-247.532425	280.964966
7852.088130	-309.037415	-250.396255	291.835785
7852.091451	-312.485657	-254.253662	303.466400
7852.095234	-315.817078	-258.578613	315.564606
7852.098905	-319.382233	-262.669800	327.370544
7852.102249	-322.772064	-266.293396	340.111633
7852.105572	-326.045013	-269.274109	352.385162
7852.108916	-329.493286	-273.073059	366.470490
7852.112238	-332.357086	-276.930420	380.146698
7852.115574	-335.746948	-280.203400	393.472260
7852.118899	-338.260071	-283.476349	409.603180
7852.122239	-341.533020	-286.749268	423.980713
7852.125564	-343.461731	-290.431305	439.001190
7852.128900	-345.799530	-293.178253	455.365845
7852.132266	-348.312683	-296.217438	472.022827
7852.135571	-349.014008	-298.964355	488.329041
7852.138902	-349.890717	-301.594391	505.570435
7852.142238	-351.877869	-303.873749	522.402649
7852.145569	-352.053192	-306.386902	541.163635
7852.149324	-352.053192	-308.081818	559.632385
7852.152662	-352.871429	-309.893616	578.042664
7852.156023	-351.702515	-310.653412	596.686768
7852.159341	-350.650513	-312.173004	615.681458
7852.162766	-348.838684	-312.173004	635.845154
7852.165991	-346.910004	-312.991211	655.190552
7852.169324	-344.396851	-312.991211	674.594421
7852.172647	-341.416107	-312.348328	694.173584
7852.176022	-337.208069	-311.471649	713.811218
7852.179769	-333.584442	-310.302734	733.624207
7852.183106	-327.915253	-308.432495	753.787842
7852.186516	-322.888947	-306.386902	773.659302
7852.189831	-316.810638	-303.815308	793.589172
7852.193155	-309.154297	-300.250122	813.051453
7852.196411	-301.790192	-296.860321	832.630615
7852.199742	-293.081848	-292.476898	851.450012
7852.203075	-284.081238	-287.333710	870.970764
7852.206474	-275.139099	-282.365845	889.147339
7852.209763	-264.677368	-276.755096	906.564026
7852.213164	-253.572784	-270.559906	923.571655
7852.216913	-241.708344	-263.663361	941.923462
7852.220246	-230.136185	-256.240784	957.060791
7852.223622	-217.336655	-248.292221	971.730591
7852.226988	-203.601974	-240.109879	987.043274
7852.230288	-188.815308	-230.758621	1000.251892
7852.233629	-174.262421	-221.758041	1012.876038
7852.236917	-158.774399	-211.413193	1024.097534
7852.240232	-142.117477	-200.659256	1034.091797
7852.244007	-125.811218	-190.197540	1043.326050
7852.247377	-108.277618	-178.216248	1051.274658
7852.250677	-91.036240	-166.819397	1059.223145
7852.254004	-73.561073	-154.838104	1063.957275
7852.257373	-54.975452	-141.863235	1068.106934
7852.260741	-36.682056	-129.648163	1069.626465
7852.264031	-18.388660	-116.264175	1072.782471
7852.267449	-0.270602	-103.932205	1072.314941
7852.270751	18.957918	-90.139099	1071.262939
7852.274076	37.134426	-77.339569	1069.100464
7852.277411	55.544708	-64.364700	1065.359985
7852.281155	74.188782	-50.863823	1059.749268
7852.284467	92.774399	-37.713619	1052.969604
7852.287786	110.249565	-24.855640	1045.137817
7852.291075	127.257156	-11.705435	1036.487915
7852.294396	144.732315	1.444769	1027.487427
7852.297837	161.213913	14.653419	1016.616638
7852.301144	177.870834	27.452950	1004.635315
7852.304469	193.125061	38.966686	991.718933
7852.307800	209.139114	50.772652	978.218018
7852.311558	223.341324	62.870838	963.139099
7852.314954	237.485092	72.981888	948.703186
7852.318276	249.817062	83.794281	930.818787
7852.321583	263.317932	94.489777	915.096985
7852.324920	275.474579	104.659256	897.037354
7852.328260	286.754547	114.478088	880.555786
7852.331565	297.450043	123.128006	861.151917
7852.334944	307.911743	132.362366	843.559875
7852.338681	317.029205	139.960266	824.039124
7852.342215	324.919342	148.434830	805.044434
7852.345552	333.627686	155.740509	785.991272
7852.348885	340.407379	161.935715	767.054932
7852.352214	346.427216	168.540039	747.768005
7852.355544	352.037994	175.378143	727.429016
7852.358877	358.057861	181.047348	708.375793
7852.362211	363.025726	186.307419	689.731750
7852.365541	366.415558	190.340149	670.152588
7852.368896	370.156036	194.723557	650.631836
7852.372214	372.026306	198.580948	630.877258
7852.375546	374.539459	201.737000	612.233215
7852.378873	376.175934	204.308594	594.232056
7852.382210	376.643494	207.347748	576.055542
7852.385960	377.870850	210.094681	557.294556
7852.389324	377.286377	211.672699	540.637634
7852.392658	378.279938	213.250732	522.636475
7852.395989	377.637054	214.828766	506.505554
7852.399369	376.292786	215.296326	489.790222
7852.402639	374.422546	216.406799	472.841034
7852.406008	373.019867	216.932785	456.242584
7852.409302	371.500305	216.991226	440.579193
7852.412636	368.285797	216.932785	424.740509
7852.416412	366.298645	216.757462	410.362976
7852.419744	363.317932	216.114563	396.803619
7852.423141	359.635864	216.114563	381.607819
7852.426465	356.538269	214.828766	368.282318
7852.429787	354.083588	214.361206	355.307434
7852.433048	349.700195	212.958496	343.267700
7852.436382	346.310364	211.555801	329.416138
7852.439710	342.569855	210.036255	317.902405
7852.443091	338.420227	209.042664	305.921112
7852.446917	334.621277	206.997070	295.459412
7852.449847	330.237854	205.419052	284.062531
7852.453559	325.971375	203.782578	273.425507
7852.456885	321.997070	202.087677	263.548248
7852.460166	318.081238	199.691406	253.904739
7852.463609	313.405609	197.879623	243.852127
7852.466896	309.022217	196.126236	234.325546
7852.470239	304.405029	193.379318	227.078308
7852.473589	300.021637	191.801285	217.668625
7852.476908	295.462891	189.463470	210.012268
7852.480658	291.254822	186.658096	202.005264
7852.483975	286.345398	184.729401	194.874924
7852.487275	282.371124	183.092926	187.218582
7852.490593	278.338409	180.462891	179.562256
7852.493901	274.247223	178.592636	173.133255
7852.497292	270.039154	175.553482	167.288712
