time (s)	magX	magY	magZ
10672.333524	-335.805359	-139.934540	219.714203
10672.336846	-331.188202	-136.018707	210.362961
10672.340184	-324.700775	-131.576859	200.368774
10672.343522	-319.323792	-128.362350	192.011108
10672.346844	-313.888367	-124.504974	184.004089
10672.350188	-308.628296	-120.530685	175.646408
10672.353519	-303.835785	-116.848618	166.996490
10672.356855	-298.517242	-113.692581	159.457047
10672.360197	-292.263580	-110.302750	152.911163
10672.363513	-287.354187	-107.146698	145.137924
10672.367296	-282.269440	-104.458206	137.832260
10672.370629	-277.593811	-100.717712	132.104614
10672.373946	-272.801270	-97.795441	125.324966
10672.377270	-267.365875	-94.931625	120.357101
10672.380605	-262.514893	-92.243134	114.103439
10672.383944	-257.313263	-90.255997	109.427811
10672.387269	-253.222076	-87.450623	103.641731
10672.390615	-249.306244	-84.820572	98.323196
10672.393941	-244.279953	-82.424316	93.998245
10672.397331	-239.604324	-80.495621	89.965515
10672.401111	-235.630035	-78.625366	85.231445
10672.404458	-231.246643	-76.053772	81.607826
10672.407689	-226.921677	-74.241959	77.458206
10672.411023	-223.414978	-72.488602	74.185272
10672.414352	-219.148453	-70.326126	70.444771
10672.417717	-214.765045	-67.929871	67.464050
10672.421073	-211.492111	-66.936295	64.132668
10672.424445	-207.342484	-64.072472	60.859726
10672.427768	-203.835770	-62.728230	57.002335
10672.431154	-200.036819	-61.033314	54.839859
10672.434809	-196.354767	-59.630627	52.034477
10672.438131	-193.432495	-57.994156	49.053764
10672.441570	-190.042664	-56.357685	46.423729
10672.444887	-186.652832	-55.130333	44.144356
10672.448219	-183.496780	-54.078316	41.631210
10672.451532	-180.749863	-53.084743	39.994736
10672.454856	-177.476913	-51.448277	38.007599
10672.458215	-174.554642	-50.513149	36.078903
10672.461574	-171.515488	-49.168907	34.150200
10672.465317	-169.177673	-47.649330	31.753946
10672.468681	-166.781418	-47.006432	30.175920
10672.471972	-163.333145	-45.779079	28.773233
10672.475335	-161.229111	-44.843948	27.136763
10672.478638	-158.657501	-44.084160	25.675627
10672.482022	-156.144363	-43.207481	23.805376
10672.485299	-154.040329	-41.395676	23.104033
10672.488620	-151.877838	-41.220337	21.350672
10672.492438	-149.598480	-40.168324	20.824663
10672.495725	-146.617767	-39.057861	19.188196
10672.499052	-145.156631	-38.181183	18.253069
10672.502344	-142.760376	-37.421391	16.558153
10672.505691	-141.299240	-36.778492	15.915255
10672.509018	-139.078323	-36.135597	14.454119
10672.512376	-137.032730	-35.258911	13.928110
10672.515677	-135.630035	-34.616013	13.460550
10672.519416	-133.642899	-34.031559	12.291643
10672.522732	-132.064865	-33.563995	11.414961
10672.526021	-130.779083	-32.336647	10.479837
10672.529445	-128.908829	-32.102863	10.129164
10672.532754	-127.389236	-31.167738	9.661604
10672.536053	-126.395676	-31.109293	8.960258
10672.539340	-125.051422	-30.349503	7.966684
10672.543141	-123.298073	-30.174168	7.616013
10672.546829	-122.421387	-29.180595	6.739332
10672.550159	-121.018700	-29.063705	5.862652
10672.553500	-119.323792	-28.245470	5.395090
10672.556831	-118.505554	-27.836353	5.687317
10672.560170	-116.927528	-27.485682	4.985971
10672.563495	-115.700172	-26.609001	4.050848
10672.566830	-114.355934	-26.901228	3.232613
10672.570162	-113.713028	-26.141438	2.589714
10672.573492	-112.719467	-26.082993	1.420805
10672.576889	-111.550560	-25.790766	2.297487
10672.580157	-110.498535	-25.206312	1.420805
10672.583493	-110.147873	-24.738750	1.303915
10672.586823	-109.154297	-24.329632	0.427235
10672.590176	-108.043839	-23.686733	0.368790
10672.593489	-107.400932	-23.394506	0.310345
10672.596823	-106.933365	-23.803623	-0.391001
10672.600593	-106.348923	-23.745178	-0.624781
10672.603910	-105.647575	-23.511396	-1.267679
10672.607247	-104.770889	-22.517826	-0.741673
10672.610581	-103.894211	-22.634716	-1.267679
10672.613941	-103.134415	-22.284044	-1.033899
10672.617270	-102.959084	-22.342489	-1.209234
10672.620616	-102.783752	-21.758036	-2.378141
10672.623940	-102.374641	-21.991817	-2.611923
10672.627249	-101.790176	-21.524256	-2.378141
10672.631011	-101.088837	-20.998247	-2.378141
10672.634342	-101.264168	-21.056692	-3.254824
10672.637713	-100.621269	-20.881357	-3.547049
10672.641029	-100.387489	-20.530684	-3.313269
10672.644413	-99.627701	-20.063120	-3.371714
10672.647746	-99.335480	-20.121567	-2.845705
10672.651037	-99.335480	-20.063120	-4.189947
10672.654338	-99.393921	-19.595558	-3.547049
10672.657707	-98.926353	-19.420221	-3.605495
10672.661501	-98.809471	-19.244884	-2.553476
10672.664930	-99.160133	-19.186440	-3.371714
10672.668232	-98.458794	-19.420221	-3.021042
10672.671554	-99.043251	-18.368206	-2.436586
10672.674891	-98.458794	-18.660431	-2.962597
10672.678184	-98.341904	-18.251316	-3.079487
10672.681574	-98.517242	-18.368206	-2.611923
10672.684902	-98.517242	-18.485096	-2.495031
10672.688225	-98.517242	-18.192869	-2.728815
10672.691591	-98.283463	-18.134424	-2.962597
10672.694902	-98.809471	-18.368206	-2.787260
10672.698692	-99.335480	-18.017532	-2.319696
10672.702008	-99.043251	-18.017532	-2.728815
10672.705302	-98.926353	-17.433079	-2.728815
10672.708601	-100.036827	-17.666862	-2.611923
10672.711942	-99.978378	-17.666862	-2.202805
10672.715326	-99.510811	-17.433079	-2.202805
10672.718695	-99.510811	-17.549971	-1.033899
10672.722001	-100.504387	-17.549971	-1.501461
10672.725333	-101.030388	-17.199299	-1.501461
10672.729102	-100.913498	-16.848627	-2.027470
10672.732512	-101.965515	-17.257744	-1.852133
10672.735787	-102.199295	-17.082409	-1.501461
10672.739098	-102.608421	-17.082409	-1.501461
10672.742395	-103.017532	-17.199299	-0.624781
10672.745702	-103.426651	-17.082409	-0.449446
10672.749115	-103.718880	-16.614845	-0.507891
10672.752465	-104.770889	-16.673290	-0.215664
10672.756165	-105.998245	-16.790180	-0.449446
10672.759467	-105.706024	-16.381063	0.427235
10672.762785	-106.524254	-16.731735	1.829924
10672.766078	-106.874931	-16.731735	1.070133
10672.769447	-108.394501	-17.082409	1.713032
10672.772790	-109.914093	-16.731735	1.888369
10672.776101	-109.914093	-16.497955	2.180597
10672.779870	-110.673866	-16.147282	3.232613
10672.783476	-111.667442	-16.088837	3.466394
10672.786808	-113.128578	-15.796610	2.648159
10672.790138	-114.765045	-15.855056	3.349503
10672.793468	-114.648163	-15.679719	4.109293
10672.796807	-116.343071	-16.322618	5.102863
10672.800139	-117.628876	-15.796610	5.628872
10672.803469	-118.622444	-16.030392	5.453535
10672.806821	-119.966690	-16.030392	7.323786
10672.810142	-121.018700	-16.205727	7.265341
10672.813466	-122.538284	-15.913501	7.732903
10672.816806	-123.824081	-16.088837	8.375801
10672.820134	-124.876099	-16.030392	8.901814
10672.823465	-126.278778	-16.381063	9.194040
10672.826818	-127.681473	-15.855056	10.187609
10672.830137	-129.551727	-15.796610	10.830507
10672.833896	-130.603745	-15.679719	11.531855
10672.837259	-133.058441	-16.381063	12.408533
10672.840563	-134.285797	-16.439508	11.999414
10672.843890	-135.980713	-16.088837	13.343657
10672.847223	-138.493866	-16.205727	14.629457
10672.850558	-139.838104	-15.679719	15.389246
10672.853892	-141.591461	-15.679719	16.090590
10672.857243	-143.461716	-15.562829	17.376387
10672.860587	-145.390411	-15.562829	18.662188
10672.864386	-147.728226	-15.504383	19.772650
10672.867648	-150.182922	-15.562829	21.292227
10672.870974	-152.111633	-15.971946	21.818235
10672.874359	-154.624786	-15.679719	23.220922
10672.877664	-156.845703	-15.621274	24.915838
10672.881038	-159.008179	-15.153711	26.376970
10672.884402	-161.988892	-15.329047	28.071890
10672.887722	-164.560486	-14.978375	29.065454
10672.891027	-166.956741	-14.627704	30.701925
10672.894794	-168.885452	-15.212156	32.513733
10672.898173	-172.392166	-14.861485	35.319107
10672.901542	-174.905319	-14.978375	36.195793
10672.904839	-177.476913	-14.510813	38.825829
10672.908178	-180.632965	-14.335476	40.345406
10672.911469	-184.022797	-14.627704	42.449448
10672.914786	-187.120392	-14.101694	45.430153
10672.918106	-190.977783	-14.335476	47.534187
10672.921502	-194.426056	-13.751022	49.813560
10672.924861	-197.640564	-13.458796	51.976036
10672.928643	-200.621277	-13.225015	55.073639
10672.931979	-204.770905	-12.874343	57.119225
10672.935307	-208.394501	-12.640561	60.625946
10672.938636	-211.784332	-13.108124	63.548210
10672.941993	-216.401535	-11.939217	66.762711
10672.945332	-220.142029	-11.296318	70.152542
10672.948652	-224.174759	-11.588545	73.951492
10672.951970	-228.382828	-11.179427	77.808884
10672.955301	-233.233780	-10.653419	81.607826
10672.959045	-236.974289	-9.718293	85.289886
10672.962345	-241.533020	-9.484512	89.030388
10672.965742	-245.448853	-8.958504	93.472237
10672.969017	-250.825836	-8.315605	99.199883
10672.972381	-255.267670	-8.140268	102.881935
10672.975673	-259.884857	-6.854471	108.492691
10672.978964	-264.735809	-6.620689	113.811218
10672.982302	-269.878998	-5.568673	118.369949
10672.986041	-274.788422	-5.042665	124.740494
10672.989383	-280.165405	-3.406195	131.111038
10672.992719	-285.717712	-2.003507	137.072479
10672.996028	-290.802460	-0.659264	143.150787
10672.999331	-296.530090	-0.308592	150.339569
10673.002646	-302.316193	1.795441	157.469894
10673.006397	-307.634705	2.555231	164.717117
10673.010121	-312.544128	3.782583	172.373474
10673.013449	-318.856201	5.477498	179.796021
10673.016784	-324.350098	6.880187	188.913513
10673.020118	-330.486847	8.867330	197.680298
10673.023452	-335.746948	10.562244	206.447098
10673.026782	-341.357697	11.731153	216.090576
10673.030128	-347.436005	14.244301	226.084747
10673.033450	-352.462280	16.289890	235.961990
10673.036810	-358.540619	18.218586	247.241959
10673.040116	-364.209808	21.257744	258.463501
10673.043467	-369.294586	23.595558	268.749878
10673.046780	-374.613098	25.991817	281.140289
10673.050113	-380.340759	28.621861	293.121582
10673.053441	-384.490356	31.602573	306.388672
10673.056784	-389.049103	35.576855	319.538879
10673.060110	-393.607819	38.966686	333.156647
10673.063864	-398.108124	42.590298	346.599091
10673.067205	-402.316162	46.506138	361.444183
10673.070537	-405.939789	49.662186	376.113983
10673.073912	-410.030975	54.337814	391.543549
10673.077229	-413.245453	58.662769	406.213348
10673.080583	-415.349518	63.046169	422.694946
10673.083871	-418.388672	67.897141	438.884277
10673.087238	-419.908264	72.046753	456.184113
10673.090541	-420.726471	77.540619	473.425507
10673.094293	-422.362915	82.391586	490.549988
10673.097649	-421.953857	87.827011	507.849792
10673.101001	-421.603119	93.379303	525.617187
10673.104383	-421.135590	99.340744	544.027466
10673.107697	-418.914673	105.477509	561.035095
10673.111009	-416.401520	111.380478	579.854492
10673.114287	-412.368805	118.101700	598.206360
10673.117616	-408.803619	124.822922	616.850403
10673.120954	-403.485077	131.251907	635.260681
10673.124311	-398.049652	137.739349	652.852722
10673.128138	-391.270020	144.694336	670.970764
10673.131488	-383.321442	151.473999	689.205750
10673.134798	-375.022186	158.779663	704.810608
10673.138131	-365.729401	166.026886	723.279419
10673.141435	-354.858582	173.040329	740.228516
10673.144823	-343.695496	180.346008	756.242554
10673.148167	-331.363525	187.417892	771.964355
10673.151508	-317.862640	194.372879	786.458862
10673.154814	-303.601990	202.263016	800.719482
10673.158209	-287.997070	209.627121	814.454163
10673.161546	-272.684387	216.348328	827.312134
10673.164896	-255.501465	223.011108	839.059631
10673.168631	-237.734085	229.673874	850.631775
10673.171945	-220.258911	236.102859	859.457092
10673.175241	-201.205734	241.713608	868.632935
10673.178600	-181.451202	247.791931	876.113953
10673.181967	-161.170670	253.461151	882.601440
10673.185276	-140.364105	258.487427	887.335449
10673.188600	-119.499123	263.805969	890.725281
10673.191954	-97.406784	268.014008	893.238525
10673.195315	-75.898888	272.455872	893.647644
10673.199112	-53.280540	275.904144	893.881409
10673.202436	-31.889538	279.352417	893.355347
10673.205749	-9.504969	281.748688	890.666809
10673.209019	13.347165	284.378723	886.751038
10673.212302	35.264172	286.190521	881.432495
10673.215698	57.064289	288.236145	875.938660
10673.218988	78.396843	288.937469	869.158997
10673.222750	98.969604	289.872589	860.801270
10673.226048	119.191704	289.814148	851.157837
10673.229415	139.413803	289.112793	840.403870
10673.232723	158.466980	288.703705	828.071960
10673.236043	176.760376	287.417877	816.967285
10673.239428	195.229111	286.774994	802.823486
10673.242744	212.002914	284.320282	788.971985
10673.246069	229.010513	282.508484	774.828186
10673.249416	243.504974	280.346008	758.989502
10673.253128	258.174744	277.657532	741.455872
10673.256760	271.850952	274.793701	726.669250
10673.260177	284.884277	271.345428	709.661621
10673.263426	296.982483	267.897156	692.420227
10673.266756	307.853302	263.747528	675.120422
10673.270093	317.672119	259.481018	656.067261
10673.273427	327.724731	255.798950	638.942749
10673.276759	335.907074	251.532455	620.532410
10673.280088	343.037415	247.032166	603.407959
10673.283426	349.583282	242.531860	584.354797
10673.286786	356.012268	238.206909	565.593811
10673.290088	361.798370	234.466400	547.768005
10673.293432	365.188202	229.323212	530.292786
10673.296756	369.104034	224.472260	512.992981
10673.300515	371.324982	219.679733	495.225647
10673.303844	374.013458	214.711868	477.984253
10673.307204	375.474579	209.977783	461.736389
10673.310556	376.117462	205.360626	443.326141
10673.313866	376.000580	200.334305	427.545898
10673.317184	376.175934	195.249557	411.531891
10673.320504	375.416138	190.164825	395.693176
10673.323855	374.948578	185.898315	379.912903
10673.327597	372.552307	181.281128	365.009369
10673.330989	371.091187	176.371704	351.099396
10673.334292	368.811798	171.871429	338.007599
10673.337774	366.064880	167.254242	323.337830
10673.341010	363.843933	162.753952	310.772064
10673.344283	359.460541	158.896561	297.972534
10673.347598	356.713623	154.279373	284.997650
10673.350932	352.213348	149.895966	273.659302
10673.354331	348.589691	146.097015	262.320892
10673.357617	344.323212	142.298065	250.690231
10673.361442	339.939819	137.973129	239.819412
10673.364812	335.907074	134.641739	230.234360
10673.368113	331.582123	130.024551	220.707764
10673.371458	326.672699	126.342499	210.713623
10673.374770	322.406189	123.244888	202.063705
10673.378111	317.263000	119.913498	194.115128
10673.381447	312.821136	115.647003	184.646988
10673.384779	308.087097	112.783173	176.639969
10673.388084	303.528351	108.984222	168.574524
10673.391865	298.969604	106.529510	160.509048
10673.395195	293.358856	103.548798	154.080063
10673.398527	289.209259	100.275864	147.183517
10673.401780	283.949158	97.645828	140.345413
10673.405165	279.682648	94.781998	135.377563
10673.408451	274.890106	92.210403	128.773224
10673.411825	270.097626	89.463470	121.701340
10673.415112	265.188202	87.008774	116.791931
10673.418892	260.804810	84.203384	110.713623
10673.422220	256.421387	82.216248	106.388657
10673.425511	251.745773	80.345993	101.946815
10673.428906	247.946808	77.657516	96.862076
10673.432193	243.680313	75.202805	91.718872
10673.435521	240.056702	73.040329	87.218590
10673.438779	235.673279	71.345413	83.478073
10673.442522	231.406784	69.475159	79.270012
10673.445846	227.607819	67.604904	75.354179
10673.449146	223.516647	65.559326	71.789009
10673.452515	220.009949	64.273529	68.866745
10673.455809	216.094086	62.461720	64.658676
10673.459166	212.704269	61.292812	62.262413
10673.462476	208.905319	59.656342	59.573929
10673.466257	204.521912	58.195206	56.534775
10673.469564	201.658096	56.850964	53.729401
10673.472876	198.735840	54.863823	50.807129
10673.476270	195.229111	53.578026	48.293976
10673.479616	191.956161	52.000000	47.183517
10673.482922	188.449448	50.714203	43.969025
10673.486257	185.293396	49.545296	42.274109
10673.489601	182.546463	47.733486	39.702515
10673.492920	179.741089	46.798363	37.949150
10673.496725	176.994156	45.980125	36.663353
10673.500073	174.188782	44.869667	33.857979
10673.503402	171.617187	43.466976	32.396843
10673.506736	169.337814	42.531853	31.227938
10673.510065	166.824661	41.187611	29.123903
10673.513398	164.253067	40.544712	27.370546
10673.516733	161.856812	39.609585	26.084745
10673.520070	159.869675	39.200470	24.798948
10673.523417	157.122726	38.031563	23.337812
10673.526735	155.018692	36.979546	22.870249
10673.530514	153.382233	36.453533	20.590883
10673.533851	151.044418	35.752190	20.006430
10673.537158	148.881927	34.700176	19.012857
10673.540483	147.420807	34.115723	17.317942
10673.543829	144.556992	33.180595	16.791933
10673.547159	143.388077	32.187027	15.330801
10673.550484	141.050262	32.303917	14.454119
10673.553841	139.413803	31.719463	12.817652
10673.557184	137.952667	30.725891	12.466978
10673.560512	136.608414	30.024548	12.934542
10673.564321	135.147278	29.556984	10.888956
10673.567610	132.984802	28.797195	10.772062
10673.570905	131.991226	29.147869	9.252485
10673.574238	130.646988	28.271187	8.843367
10673.577607	128.659836	27.511395	9.018702
10673.580924	127.374054	27.219170	8.025129
10673.584345	126.438927	26.810051	7.440676
10673.587688	125.679138	25.991817	6.856222
10673.590970	124.101112	25.933371	6.037989
10673.594667	122.113968	25.582699	5.862652
10673.598051	121.061958	25.115137	4.693747
10673.601410	120.477493	24.881355	4.226183
10673.604742	119.133255	24.355347	4.050848
10673.608076	118.022797	23.887785	3.758621
10673.611433	117.204559	23.654003	3.115721
10673.614784	116.386330	23.420221	2.940386
10673.618085	115.568085	22.601988	2.998831
10673.621452	114.574516	22.251316	2.414377
10673.624772	113.931618	22.309761	2.355932
10673.628126	112.938049	21.316191	2.063705
10673.631908	112.002922	21.257744	2.005260
10673.635267	111.184692	21.023964	1.946814
10673.638581	110.892464	20.497953	1.420805
10673.641879	110.541786	19.913500	0.661016
10673.645187	109.431328	19.971947	1.011688
10673.648515	109.139099	19.679720	0.427235
10673.651851	108.963760	20.088837	0.251900
10673.655155	108.145531	19.212156	0.544125
10673.658959	107.853302	19.212156	-0.858562
10673.662274	106.859734	19.095266	-0.917007
10673.665584	106.859734	18.510813	-0.215664
10673.668870	106.216835	18.218586	-0.624781
10673.672290	106.158386	18.335476	-1.735243
10673.675624	105.807724	17.984804	-1.092344
10673.678923	105.457047	17.575687	-0.449446
10673.682275	104.931030	17.225016	-1.618351
10673.686022	104.697250	17.634132	-2.144360
10673.689478	104.931030	17.458796	-1.910578
10673.692421	104.405029	17.049679	-1.910578
10673.696124	104.697250	17.049679	-1.384571
10673.699460	104.521919	16.523670	-1.501461
10673.702764	103.995903	16.465225	-1.501461
10673.706074	104.638817	16.056107	-1.501461
10673.709417	103.879021	16.114552	-1.618351
10673.712722	104.112801	16.056107	-2.904150
10673.716105	104.054352	15.939217	-2.027470
10673.719421	104.405029	15.763880	-2.553476
10673.723248	104.229691	16.289890	-1.793688
10673.726708	104.521919	15.939217	-2.027470
10673.730049	104.755699	15.588545	-2.553476
10673.733376	104.580368	15.471653	-2.261251
10673.736715	105.106377	15.354763	-1.559906
10673.740066	105.457047	15.354763	-1.852133
10673.743376	105.749275	15.354763	-2.085915
10673.746713	105.924606	14.828754	-1.092344
10673.750046	106.216835	14.887199	-1.150789
10673.753382	106.509064	14.828754	-1.033899
10673.756763	106.509064	14.594975	-1.150789
10673.760044	107.268845	14.828754	-0.624781
10673.763376	108.028641	14.770309	-0.975452
10673.767130	107.911751	13.776739	-0.917007
10673.770489	108.496201	14.244301	-0.858562
10673.773804	109.314438	14.361193	-0.858562
10673.777134	109.548225	13.484512	0.368790
10673.780465	110.541786	14.010521	0.894798
10673.783805	111.067795	13.835184	0.777906
10673.787149	112.061371	13.776739	0.836351
10673.790488	112.061371	13.952074	1.187025
10673.793824	113.347168	13.718294	1.362360
10673.797170	114.106949	13.601402	1.713032
10673.800890	114.749863	13.542957	2.648159
10673.804220	115.626534	13.484512	2.180597
10673.807563	116.561661	13.776739	3.291058
10673.810914	117.204559	13.192286	3.641729
10673.814284	117.964348	13.250731	4.518410
10673.817646	118.724144	12.900059	5.044418
