time (s)	magX	magY	magZ
4608.572229	33.744591	-237.772064	1024.039062
4608.575531	12.412040	-245.895966	1021.175354
4608.578861	-9.621859	-254.604324	1016.441345
4608.582159	-30.136177	-262.552887	1011.356506
4608.585464	-50.825829	-269.332550	1003.817078
4608.588784	-71.340149	-276.638214	996.336060
4608.592168	-90.919350	-282.716553	986.341919
4608.595980	-109.972527	-289.145538	975.471069
4608.599288	-129.551727	-294.697845	964.717163
4608.602587	-147.377548	-300.191681	951.625427
4608.605903	-165.028046	-304.399750	937.832336
4608.609301	-181.392761	-308.490936	921.759766
4608.612589	-198.400360	-311.822327	906.973145
4608.615928	-214.122147	-314.978363	890.199341
4608.619219	-228.499695	-318.192871	872.782593
4608.622547	-241.825241	-320.121552	855.775024
4608.625911	-254.390991	-321.407349	837.949158
4608.629684	-267.190521	-323.043823	818.895996
4608.633285	-278.996490	-323.569824	799.550598
4608.636619	-289.107544	-323.336060	779.386963
4608.639948	-299.686157	-323.745178	759.573975
4608.643282	-308.160736	-323.102264	738.942749
4608.646614	-316.693726	-322.284027	718.369995
4608.649945	-323.882538	-320.413788	697.797241
4608.653279	-330.837524	-319.011108	678.627136
4608.656637	-336.974274	-317.491516	657.469910
4608.659943	-342.175903	-314.803040	637.306274
4608.663282	-346.734680	-311.939209	617.025696
4608.666632	-350.475159	-309.659851	597.037415
4608.669949	-352.871429	-306.737579	576.815308
4608.673280	-356.144348	-302.471069	557.528381
4608.676608	-357.488617	-298.672119	538.241394
4608.680394	-358.891296	-295.340729	519.305115
4608.683709	-359.943298	-291.191101	501.303894
4608.687038	-360.177094	-286.807709	483.185883
4608.690368	-359.709534	-283.067200	466.412018
4608.693697	-359.183533	-278.800720	447.651123
4608.697036	-357.839264	-274.417297	431.227936
4608.700400	-356.670349	-269.741669	414.571014
4608.703724	-354.507904	-265.241364	399.199890
4608.707058	-352.462280	-260.331970	383.887207
4608.710799	-350.124481	-255.890106	369.568085
4608.714125	-347.319092	-251.214493	355.482788
4608.717456	-344.513733	-246.480423	341.981903
4608.720822	-341.357697	-242.272354	328.714813
4608.724162	-338.318512	-237.596741	316.499725
4608.727526	-334.402679	-232.511978	303.933960
4608.730874	-331.363525	-228.303909	291.835785
4608.734236	-327.915253	-223.452957	280.731171
4608.737463	-323.882538	-218.894196	268.749878
4608.741253	-320.025146	-214.218582	259.398621
4608.744170	-315.933960	-210.068970	249.404434
4608.747962	-312.661011	-206.328476	238.592056
4608.751295	-308.686737	-201.594391	229.474564
4608.754632	-304.127991	-197.094086	219.947983
4608.757906	-299.803040	-193.353592	211.473404
4608.761273	-295.828735	-189.145523	203.349487
4608.764641	-291.445343	-184.937454	195.868484
4608.767971	-287.295715	-181.080063	187.452362
4608.771286	-283.146118	-177.047348	179.503799
4608.774686	-278.762726	-173.540604	172.373474
4608.778032	-274.437775	-169.975449	165.535355
4608.781799	-270.521942	-166.118057	159.164810
4608.785101	-267.190521	-162.319107	152.502045
4608.788386	-262.456451	-159.104614	146.482178
4608.791713	-258.248413	-155.597900	140.286972
4608.795024	-253.981873	-152.500290	134.267105
4608.798308	-249.715378	-148.701340	128.773224
4608.801643	-246.091751	-146.188202	123.337814
4608.805379	-242.701935	-142.564575	118.077728
4608.808713	-238.610748	-139.350082	113.811218
4608.812013	-234.636475	-136.661591	108.551132
4608.815356	-231.714203	-133.680893	104.343079
4608.818696	-227.798370	-131.635300	99.609001
4608.821972	-224.174759	-128.245468	95.108704
4608.825290	-221.369370	-125.790756	91.894218
4608.829041	-217.336655	-123.452942	87.452370
4608.832340	-213.946823	-120.296906	84.413200
4608.835686	-210.966110	-118.134430	81.023376
4608.839046	-207.225616	-115.679718	77.399757
4608.842389	-204.303345	-113.867920	74.126823
4608.845715	-201.205734	-111.588547	71.146111
4608.849046	-198.809464	-109.542953	68.925194
4608.852392	-196.354767	-107.205139	65.535355
4608.855753	-192.672699	-104.691986	63.255989
4608.859481	-189.984222	-103.113968	61.444183
4608.862847	-187.880188	-101.126831	59.515488
4608.866592	-184.607239	-99.198135	57.294563
4608.869929	-182.503220	-97.210983	54.021622
4608.873290	-180.808289	-95.282288	52.092926
4608.876590	-178.002914	-94.347168	50.398010
4608.879928	-174.905319	-92.535355	48.177086
4608.883262	-173.268845	-91.074234	46.540619
4608.886587	-170.814148	-89.379303	45.663933
4608.889923	-168.242554	-88.093506	43.384567
4608.893253	-166.313858	-86.924606	41.748100
4608.896586	-164.209824	-85.346573	41.105202
4608.899919	-162.631805	-83.710114	38.299828
4608.903253	-160.527771	-82.307419	37.656921
4608.906589	-158.073059	-80.904739	36.020454
4608.909924	-156.553467	-79.794281	34.851547
4608.913319	-155.209229	-78.859146	32.163063
4608.916621	-153.105194	-77.807129	31.637056
4608.919921	-151.468735	-76.345993	31.111048
4608.923689	-150.241379	-75.177094	28.773233
4608.927021	-148.137344	-74.534195	27.721216
4608.930349	-146.617767	-73.540619	26.026300
4608.933674	-145.215088	-72.254822	25.208063
4608.937007	-143.520172	-71.085922	24.857393
4608.940357	-141.942139	-69.917007	23.104033
4608.943698	-140.481003	-69.507889	22.519579
4608.947057	-138.844543	-68.280533	20.590883
4608.950368	-137.675629	-67.228516	20.883108
4608.953742	-136.389832	-66.644066	20.181765
4608.957441	-135.220917	-65.825836	19.421976
4608.960786	-133.759781	-64.598480	19.129747
4608.964102	-132.824661	-63.955578	19.012857
4608.967453	-131.889542	-63.137344	17.434832
4608.970789	-130.954407	-62.494450	16.675043
4608.974187	-129.727051	-61.442432	16.967268
4608.977540	-129.259491	-61.267094	16.499704
4608.980811	-128.675049	-60.682640	15.097017
4608.984550	-127.389236	-59.163063	14.454119
4608.987880	-126.629456	-59.221512	14.863237
4608.991299	-125.752777	-58.520161	14.337229
4608.994677	-125.285202	-58.461720	14.337229
4608.998011	-124.350082	-57.877266	14.045004
4609.001312	-123.882523	-57.643482	13.226767
4609.004729	-122.947395	-56.649910	11.940969
4609.008023	-122.362946	-56.708359	12.583868
4609.011379	-121.427826	-56.123905	11.999414
4609.014755	-121.310928	-55.773232	12.233198
4609.018025	-120.492699	-55.422562	11.940969
4609.021429	-120.492699	-55.013439	12.116304
4609.024794	-119.966690	-54.370544	11.940969
4609.028105	-119.382225	-54.136761	11.414961
4609.031551	-119.206894	-53.727642	11.005846
4609.034863	-119.206894	-54.078316	9.895384
4609.038615	-118.856232	-52.850964	10.187609
4609.041915	-118.622444	-53.201633	10.479837
4609.045348	-118.213318	-53.084743	10.304502
4609.048688	-117.395096	-52.617184	9.720049
4609.052082	-117.745758	-51.974285	9.077150
4609.055383	-117.219757	-51.915836	8.726473
4609.058790	-117.278198	-51.623611	9.544710
4609.062078	-117.395096	-51.389832	8.843367
4609.065471	-117.278198	-51.448277	9.018702
4609.068808	-116.752197	-50.863823	8.434248
4609.072100	-116.693748	-50.162479	8.492693
4609.075439	-116.343071	-50.454704	8.843367
4609.078863	-116.459969	-49.987141	9.077150
4609.082153	-116.693748	-50.337814	8.901814
4609.085521	-117.102859	-49.694916	8.083574
4609.089259	-117.044411	-50.104031	8.200466
4609.092614	-117.570427	-49.636471	8.668028
4609.096000	-117.395096	-49.285797	9.427820
4609.099339	-117.395096	-49.461132	8.492693
4609.102652	-118.037987	-49.461132	8.960258
4609.105996	-118.037987	-49.811806	9.427820
4609.109351	-118.680885	-49.344242	10.246054
4609.112739	-119.090012	-49.578026	9.661604
4609.116038	-119.206894	-50.104031	10.596727
4609.119397	-119.908241	-49.344242	10.655172
4609.122741	-120.200470	-49.227352	9.953829
4609.126446	-120.960258	-49.052017	10.596727
4609.129903	-121.544708	-49.461132	11.414961
4609.133229	-122.070717	-49.753361	11.005846
4609.136565	-122.655167	-49.753361	11.531855
4609.139903	-123.181175	-49.987141	11.473406
4609.143229	-124.057869	-50.396259	11.824080
4609.146568	-124.174751	-50.279369	11.882524
4609.149902	-125.518997	-49.870251	12.174753
4609.153228	-126.103455	-50.337814	13.986555
4609.156567	-126.804794	-50.805378	13.402105
4609.159895	-127.856812	-50.104031	14.103449
4609.163661	-128.850372	-50.746933	14.220339
4609.166992	-130.253067	-50.922268	15.564581
4609.170341	-130.954407	-50.688484	16.207479
4609.173683	-131.071304	-50.805378	16.265924
4609.177039	-131.947983	-51.272938	17.142607
4609.180404	-132.883102	-51.506721	17.376387
4609.183649	-133.993561	-51.623611	17.785505
4609.186993	-134.987137	-52.266510	18.077734
4609.190330	-136.682053	-52.383400	19.071302
4609.194073	-137.266510	-52.208065	19.480421
4609.197466	-138.786087	-52.850964	20.357100
4609.200766	-140.481003	-53.318527	20.766218
4609.204199	-141.416138	-53.552307	21.642900
4609.207484	-142.760376	-53.552307	21.584452
4609.210792	-144.279953	-53.610752	22.636469
4609.214075	-146.208649	-54.253654	23.220922
4609.217405	-148.020462	-54.312096	24.331385
4609.220740	-149.540039	-54.954998	25.441847
4609.224123	-150.708939	-55.071888	26.552305
4609.227905	-152.345413	-55.481003	27.195204
4609.230866	-154.683228	-56.007015	29.416128
4609.234602	-156.378143	-56.533020	29.708357
4609.237954	-157.897720	-56.533020	30.526594
4609.241243	-160.118637	-57.468143	32.221512
4609.244670	-161.930450	-57.818817	32.864403
4609.248000	-164.326706	-58.695499	34.793106
4609.251339	-166.547638	-58.520161	37.130920
4609.254749	-169.177673	-59.279953	38.241379
4609.258024	-170.755692	-59.630627	39.994736
4609.261341	-172.859726	-60.039745	41.105202
4609.264683	-175.606659	-60.215076	42.975449
4609.268439	-178.470474	-60.507309	45.021042
4609.271855	-181.158966	-61.851547	47.417297
4609.275157	-183.438339	-62.494450	48.819984
4609.278520	-186.711273	-62.611340	51.040909
4609.281891	-189.399765	-63.078903	53.378723
4609.285206	-192.088242	-64.715378	55.482758
4609.288561	-195.478088	-64.540031	57.002335
4609.291863	-198.225021	-64.189362	59.164818
4609.295209	-201.673294	-65.182938	62.671539
4609.298629	-204.420212	-66.176498	65.301575
4609.301935	-207.751602	-66.293396	67.580948
4609.305656	-211.316772	-66.936295	69.684975
4609.309014	-214.706619	-67.345413	73.600815
4609.312340	-218.271774	-68.163651	76.113960
4609.315672	-221.895386	-68.455872	78.744011
4609.318976	-225.928116	-69.098770	82.601395
4609.322301	-229.142593	-69.274109	85.874336
4609.325625	-232.824661	-70.092346	89.088837
4609.328932	-236.623627	-70.501465	92.069550
4609.332729	-240.013428	-70.793686	96.336060
4609.335993	-244.046158	-71.495026	100.251892
4609.339310	-248.429565	-72.313263	104.050842
4609.342598	-252.871429	-72.722382	108.375809
4609.345988	-257.137909	-73.131500	113.051437
4609.349279	-261.287537	-73.540619	117.668610
4609.352643	-265.846283	-73.949738	122.519577
4609.355944	-270.288147	-74.066620	126.844528
4609.359677	-274.963776	-74.884857	132.455276
4609.363213	-280.106964	-75.469315	138.416718
4609.366545	-284.548798	-75.819992	143.852127
4609.369877	-290.042664	-75.819992	149.521332
4609.373211	-294.893616	-76.404434	156.067215
4609.376543	-300.212158	-76.521332	162.496201
4609.379881	-305.706024	-77.047348	169.334305
4609.383210	-311.024536	-77.222687	176.464630
4609.386541	-315.933960	-77.105789	184.062515
4609.389869	-321.603149	-77.047348	191.543549
4609.393204	-327.330811	-77.222687	199.959671
4609.396539	-331.831085	-76.930450	208.258911
4609.399869	-337.675629	-76.755112	215.681473
4609.403659	-343.344818	-76.462891	224.798935
4609.406989	-348.780243	-76.287552	233.741074
4609.410320	-354.507904	-75.293976	243.384567
4609.413683	-360.177094	-74.826416	254.080063
4609.416964	-365.670959	-73.482178	264.074249
4609.420295	-371.106354	-72.196381	274.652863
4609.423640	-377.009338	-71.436584	285.874359
4609.426972	-381.918762	-70.443008	296.920532
4609.430295	-387.412628	-69.215668	308.668060
4609.434099	-392.555817	-67.754532	319.831085
4609.437473	-397.173004	-65.475159	332.279968
4609.440792	-402.374634	-63.078903	344.904175
4609.444127	-407.576263	-61.150204	357.762146
4609.447406	-411.550537	-59.221512	370.912354
4609.450708	-415.291046	-56.591469	384.647003
4609.454045	-420.141998	-54.136761	399.199890
4609.457411	-423.765625	-50.922268	413.869690
4609.460731	-427.038544	-47.766220	427.253693
4609.464132	-430.253052	-44.084160	442.098755
4609.467484	-433.409088	-40.402103	460.099945
4609.471181	-435.630066	-36.486267	474.828217
4609.474518	-437.558716	-32.278198	491.075989
4609.477851	-439.312103	-27.661016	506.856262
4609.481232	-440.890106	-23.043835	523.454712
4609.484546	-440.890106	-17.959087	539.644043
4609.487880	-442.000610	-12.640561	555.015198
4609.491175	-441.533020	-6.562244	572.665710
4609.494547	-440.597900	0.684979	590.082397
4609.497926	-438.610779	6.997078	606.739319
4609.501654	-436.389862	14.068966	623.337830
4609.504975	-433.058441	20.848627	641.163635
4609.508305	-429.960846	27.920517	657.528381
4609.511598	-425.343689	36.044418	674.769714
4609.514952	-420.784912	44.343658	691.134399
4609.518305	-414.823517	53.052017	707.440674
4609.521603	-407.693176	62.695499	723.688538
4609.524925	-399.803040	71.403854	739.059631
4609.528306	-391.679138	80.696671	754.781433
4609.532125	-381.918762	90.983047	769.918762
4609.535450	-371.983063	101.094086	783.302734
4609.538739	-361.287537	111.146698	797.271240
4609.542005	-349.130920	121.725311	809.895386
4609.545329	-336.272919	132.537704	822.285828
4609.548623	-323.122742	142.473419	833.332031
4609.551970	-309.212738	154.162491	843.793762
4609.555710	-293.724731	164.507309	853.670959
4609.559102	-277.886047	175.670364	862.729980
4609.562385	-261.638214	186.424316	869.392761
4609.565747	-245.565750	196.710693	875.997131
4609.569027	-229.434830	207.113968	881.140320
4609.572323	-211.199875	217.926346	885.874329
4609.575661	-193.081818	227.628296	889.264160
4609.578975	-174.496201	236.921112	891.368225
4609.582837	-156.202805	245.804810	892.537048
4609.586518	-137.266510	255.156067	892.303345
4609.589864	-117.687325	263.396851	891.543518
4609.593184	-98.400352	272.163635	889.907104
4609.596520	-78.587379	280.053772	886.341919
4609.599852	-59.884857	287.125641	881.783142
4609.603188	-40.422562	294.431335	877.049133
4609.606583	-21.310928	301.327881	869.334290
4609.609849	-2.374635	307.113983	862.963745
4609.613188	17.146114	312.958496	855.190552
4609.616517	35.381062	317.809479	845.254883
4609.619852	53.323788	323.127991	835.026917
4609.623185	71.675629	326.810059	824.389832
4609.626517	88.624779	329.907654	812.174744
4609.629851	105.047928	333.063721	800.251892
4609.633203	121.295738	336.278198	786.984802
4609.636520	137.894211	338.615997	773.250183
4609.639848	152.739334	340.252502	759.223267
4609.643601	167.409119	340.778473	743.793701
4609.646934	180.734650	342.122742	727.721252
4609.650315	194.527771	342.064301	712.642334
4609.653633	207.210403	341.830505	696.978943
4609.656963	218.841034	341.187622	680.555847
4609.660270	229.478073	340.778473	663.139099
4609.663611	239.472244	339.025146	646.306885
4609.666930	248.823502	337.563995	628.714783
4609.670268	258.174744	335.401520	611.531860
4609.673606	265.831085	333.005249	594.699585
4609.676972	273.428986	330.258331	577.692017
4609.680711	279.857971	327.336060	559.573975
4609.684105	286.462311	323.946228	542.624817
4609.687442	290.553467	320.907074	526.143250
4609.690709	295.404419	316.523651	508.901855
4609.694059	300.021637	312.958496	491.894226
4609.697359	303.762115	308.575104	476.113983
4609.700715	306.450592	304.016357	461.327332
4609.704042	308.788422	299.925201	443.793701
4609.707478	310.775574	295.658691	428.422546
4609.710818	312.587372	290.573944	414.454132
4609.714526	312.295135	286.190521	399.024536
4609.717842	313.405609	281.748688	384.588531
4609.721163	313.230286	277.248413	371.496796
4609.724522	313.405609	272.455872	357.820587
4609.727863	312.938049	267.429596	345.605499
4609.731202	311.886017	262.169495	331.403290
4609.734494	310.717133	257.669189	318.837524
4609.737813	309.489777	252.818237	306.797791
4609.741622	307.444183	247.675049	295.985413
4609.744544	305.457031	242.999420	284.880798
4609.748316	303.762115	237.973114	273.133270
4609.751650	300.839844	233.823502	262.729980
4609.754983	298.794281	229.030991	252.560501
4609.758343	295.988892	224.589127	242.917007
4609.761705	293.300415	219.679733	232.747528
4609.765020	290.495026	215.354767	224.272934
4609.768342	287.338989	210.854477	215.389252
4609.771639	284.007599	206.704849	207.090012
4609.774987	280.851562	201.678558	199.082993
4609.778338	278.046173	197.587387	190.023972
4609.782160	274.013458	193.087082	182.484497
4609.785454	270.039154	189.346588	174.535934
4609.788776	267.175354	185.138519	167.347168
4609.792037	263.201050	180.872009	160.099945
4609.795407	260.103455	176.897720	153.554062
4609.798685	256.538269	172.689651	146.482178
4609.802005	252.914673	168.773819	141.163635
4609.805785	249.057266	165.383987	133.916428
4609.809096	245.725891	162.111053	127.838104
4609.812466	242.277618	157.786087	122.694916
4609.815760	238.361786	154.863831	116.967270
4609.819153	234.855057	151.415558	111.999405
4609.822475	231.582123	148.317947	107.265335
4609.825804	228.133850	144.577454	102.297478
4609.829083	224.860901	141.830505	98.089417
4609.832434	222.172424	139.142029	93.180008
4609.835813	218.315033	136.395096	89.497955
4609.839529	215.217422	133.472824	85.172997
4609.843165	212.119812	130.784332	81.374046
4609.846498	208.379318	128.212738	77.867325
4609.849828	205.690842	125.348923	74.477493
4609.853157	202.067200	122.485092	71.438339
4609.856524	199.846283	120.205719	68.457626
4609.859826	197.274689	117.517242	64.191116
4609.863163	194.001755	115.237869	61.853302
4609.866493	191.137939	112.724716	59.340149
4609.869833	188.332550	110.620697	56.710106
4609.873158	186.228531	108.458206	54.839859
4609.876491	182.955582	106.587967	52.969604
4609.879829	180.500870	104.600815	49.521324
4609.883159	177.695496	102.204559	47.417297
4609.886494	175.533020	100.334305	45.897720
4609.889825	172.493866	99.340744	43.676796
4609.893605	170.682053	96.769150	41.455872
4609.896983	167.935135	95.191116	40.520744
4609.900298	166.064865	93.554642	37.598480
4609.903590	163.142609	91.392166	36.195793
4609.906917	162.149033	89.755692	34.150200
4609.910240	159.811218	88.119232	32.689072
4609.913589	157.765640	86.891876	31.987730
4609.916909	155.720047	85.722961	29.649908
4609.920246	154.200470	84.144943	29.065454
4609.923597	151.862656	82.333130	27.545877
4609.927417	150.050858	81.047333	26.435415
4609.930802	147.596146	79.819992	24.857393
4609.934006	146.018127	78.943314	23.162477
4609.937334	143.738739	77.365280	22.519579
4609.940667	142.219177	75.787262	21.058447
4609.944055	140.407364	75.144363	19.947985
4609.947403	138.537109	73.858566	18.954412
4609.950790	137.543549	72.748108	17.668612
4609.954076	136.023956	71.520752	16.441259
4609.957777	134.855057	70.527176	15.798361
4609.961200	133.277039	69.299820	14.220339
4609.964523	131.523666	68.072464	13.752775
4609.967919	130.120972	67.312683	12.876097
4609.971277	128.835190	66.903564	12.700758
4609.974569	128.250732	65.968445	11.239626
4609.977886	126.263596	64.974869	11.239626
4609.981330	125.620689	63.747517	10.538282
4609.984732	124.101112	63.221508	9.310930
4609.988011	123.165985	63.046169	9.252485
4609.991398	122.113968	62.169491	8.784920
4609.994715	121.529518	61.643482	8.434248
4609.998021	119.951485	61.292812	6.622442
4610.001340	119.250145	60.299244	7.148449
4610.005124	118.548798	59.481007	6.914669
4610.008422	117.847450	58.954998	6.447105
4610.011766	117.263008	58.078316	6.388660
4610.015194	116.035652	57.902981	5.219753
4610.018489	116.327881	57.376972	4.459965
4610.021850	114.983643	56.441845	4.518410
4610.025259	114.282295	56.032730	4.635300
4610.028609	113.171829	55.565166	4.167738
4610.031893	112.528931	54.922268	3.992401
4610.035318	112.236702	54.279369	2.998831
4610.038645	112.236702	54.337814	2.531269
4610.042004	111.593803	53.987141	2.239042
4610.045376	110.600235	52.935123	2.998831
4610.048706	110.541786	52.818233	2.706604
4610.052050	109.898888	52.058449	2.063705
4610.055463	109.139099	51.883110	2.589714
4610.058771	109.431328	51.707775	1.771477
4610.062149	108.554649	51.064873	1.303915
4610.065554	108.320869	51.240211	1.128578
